Date,Close,EOG
04/04/2014,99.77,-0.008781615
03/04/2014,100.65,0.015418808
02/04/2014,99.11,0.001312535
01/04/2014,98.98,-0.684063821
31/03/2014,196.17,-0.005033952
28/03/2014,197.16,0.018944809
27/03/2014,193.46,0.006950596
26/03/2014,192.12,0.0028669
25/03/2014,191.57,0.010336687
24/03/2014,189.6,-0.010702022
21/03/2014,191.64,0.006859204
20/03/2014,190.33,0.014820575
19/03/2014,187.53,-0.008654385
18/03/2014,189.16,0.01025541
17/03/2014,187.23,0.006752437
14/03/2014,185.97,0.016591142
13/03/2014,182.91,-0.012064052
12/03/2014,185.13,-0.002535539
11/03/2014,185.6,-0.01841771
10/03/2014,189.05,-0.004591401
07/03/2014,189.92,-0.005984584
06/03/2014,191.06,0.002987815
05/03/2014,190.49,-0.005601376
04/03/2014,191.56,0.011920845
03/03/2014,189.29,-0.000686541
28/02/2014,189.42,0.010347939
27/02/2014,187.47,0.005509361
26/02/2014,186.44,0.013173714
25/02/2014,184,0.01975915
24/02/2014,180.4,0.013393057
21/02/2014,178,-0.011339953
20/02/2014,180.03,0.006520127
19/02/2014,178.86,-0.005908931
18/02/2014,179.92,0.016588589
14/02/2014,176.96,0.00845563
13/02/2014,175.47,0.00205374
12/02/2014,175.11,0.002172423
11/02/2014,174.73,0.003037861
10/02/2014,174.2,-0.013116812
07/02/2014,176.5,0.018585238
06/02/2014,173.25,0.03381199
05/02/2014,167.49,-0.006486767
04/02/2014,168.58,0.041420307
03/02/2014,161.74,-0.021408855
31/01/2014,165.24,-0.005371652
30/01/2014,166.13,0.008948606
29/01/2014,164.65,-0.015488302
28/01/2014,167.22,0.031096882
27/01/2014,162.1,-0.020939019
24/01/2014,165.53,-0.021751679
23/01/2014,169.17,-0.014961117
22/01/2014,171.72,0.014606507
21/01/2014,169.23,0.001596736
17/01/2014,168.96,-0.006724499
16/01/2014,170.1,-0.001527346
15/01/2014,170.36,0.010384799
14/01/2014,168.6,0.030960733
13/01/2014,163.46,-0.020287128
10/01/2014,166.81,-0.001138372
09/01/2014,167,0.001318234
08/01/2014,166.78,-0.000419627
07/01/2014,166.85,0.017106834
06/01/2014,164.02,-0.003286874
03/01/2014,164.56,-0.002791433
02/01/2014,165.02,-0.016944466
31/12/2013,167.84,0.002923717
30/12/2013,167.35,-0.010757585
27/12/2013,169.16,0.006761993
26/12/2013,168.02,-0.001427382
24/12/2013,168.26,0.003810889
23/12/2013,167.62,-0.005354924
20/12/2013,168.52,0.019110961
19/12/2013,165.33,0.020347141
18/12/2013,162,0.014612416
17/12/2013,159.65,-0.000563574
16/12/2013,159.74,0.004517513
13/12/2013,159.02,0.004159058
12/12/2013,158.36,0.013349636
11/12/2013,156.26,-0.019330703
10/12/2013,159.31,0.007371273
09/12/2013,158.14,-0.011943067
06/12/2013,160.04,-0.032822072
05/12/2013,165.38,-0.010526096
04/12/2013,167.13,0.009921611
03/12/2013,165.48,0.002904868
02/12/2013,165,0
29/11/2013,165,-0.008629327
27/11/2013,166.43,-0.016506647
26/11/2013,169.2,5.91034E-05
25/11/2013,169.19,-0.005658057
22/11/2013,170.15,0.004949047
21/11/2013,169.31,0.014216698
20/11/2013,166.92,-0.005794347
19/11/2013,167.89,-0.003745434
18/11/2013,168.52,-0.016828876
15/11/2013,171.38,0.010027939
14/11/2013,169.67,0.001238463
13/11/2013,169.46,0.014024475
12/11/2013,167.1,-0.025699243
11/11/2013,171.45,0.002862068
08/11/2013,170.96,-0.003620019
07/11/2013,171.58,-0.029064133
06/11/2013,176.64,-0.017341962
05/11/2013,179.73,-0.020540935
04/11/2013,183.46,0.024722592
01/11/2013,178.98,0.003245848
31/10/2013,178.4,-0.010760286
30/10/2013,180.33,-0.025999658
29/10/2013,185.08,0.014476443
28/10/2013,182.42,-0.005575918
25/10/2013,183.44,0.011017734
24/10/2013,181.43,0.016617494
23/10/2013,178.44,-0.036913897
22/10/2013,185.15,0.00449293
21/10/2013,184.32,0.002879576
18/10/2013,183.79,0.013144392
17/10/2013,181.39,-0.004949416
16/10/2013,182.29,0.012808655
15/10/2013,179.97,-0.006038298
14/10/2013,181.06,0.01149853
11/10/2013,178.99,0.023344285
10/10/2013,174.86,0.019285776
09/10/2013,171.52,0.000349875
08/10/2013,171.46,-0.007958449
07/10/2013,172.83,-0.010131916
04/10/2013,174.59,0.016109358
03/10/2013,171.8,-0.003254303
02/10/2013,172.36,0.001219123
01/10/2013,172.15,0.016812041
30/09/2013,169.28,-0.008529213
27/09/2013,170.73,-0.007934234
26/09/2013,172.09,0.004134283
25/09/2013,171.38,-0.004134283
24/09/2013,172.09,0.018947627
23/09/2013,168.86,-5.92189E-05
20/09/2013,168.87,-0.010954173
19/09/2013,170.73,-0.006189439
18/09/2013,171.79,0.023678807
17/09/2013,167.77,0.011811751
16/09/2013,165.8,-0.003852641
13/09/2013,166.44,-0.00926957
12/09/2013,167.99,0.005012841
11/09/2013,167.15,0.022078623
10/09/2013,163.5,-0.000917011
09/09/2013,163.65,0.011863556
06/09/2013,161.72,0.001794833
05/09/2013,161.43,0.005590771
04/09/2013,160.53,0.013167986
03/09/2013,158.43,0.008748629
30/08/2013,157.05,-0.000254664
29/08/2013,157.09,-0.014974218
28/08/2013,159.46,0.020079851
27/08/2013,156.29,-0.005232941
26/08/2013,157.11,0.003123708
23/08/2013,156.62,0.014275852
22/08/2013,154.4,0.016719303
21/08/2013,151.84,-0.018143159
20/08/2013,154.62,0.012560772
19/08/2013,152.69,-0.018171699
16/08/2013,155.49,-0.007049504
15/08/2013,156.59,0.001214096
14/08/2013,156.4,-0.01169604
13/08/2013,158.24,-0.00328076
12/08/2013,158.76,-0.000503778
09/08/2013,158.84,0.001638208
08/08/2013,158.58,0.014993928
07/08/2013,156.22,0.019390473
06/08/2013,153.22,-0.006245954
05/08/2013,154.18,0.00748677
02/08/2013,153.03,0.006293039
01/08/2013,152.07,0.044233585
31/07/2013,145.49,0.009599853
30/07/2013,144.1,-0.004224237
29/07/2013,144.71,-0.007092472
26/07/2013,145.74,-0.011122219
25/07/2013,147.37,0.022647139
24/07/2013,144.07,-0.031227982
23/07/2013,148.64,-0.005702226
22/07/2013,149.49,0.005500416
19/07/2013,148.67,0.011296498
18/07/2013,147,0.007991027
17/07/2013,145.83,0.008746913
16/07/2013,144.56,0.007080904
15/07/2013,143.54,-0.008117998
12/07/2013,144.71,0.008048333
11/07/2013,143.55,0.008956746
10/07/2013,142.27,0.000351506
09/07/2013,142.22,0.017448489
08/07/2013,139.76,-0.004568826
05/07/2013,140.4,0.015938309
03/07/2013,138.18,0.002173441
02/07/2013,137.88,0.018815299
01/07/2013,135.31,0.027193705
28/06/2013,131.68,0.005101081
27/06/2013,131.01,-0.006391257
26/06/2013,131.85,0.012977281
25/06/2013,130.15,0.021277398
24/06/2013,127.41,-0.023196416
21/06/2013,130.4,-0.004514335
20/06/2013,130.99,-0.034514642
19/06/2013,135.59,0.004212711
18/06/2013,135.02,0.012595657
17/06/2013,133.33,0.011996975
14/06/2013,131.74,-0.011996975
13/06/2013,133.33,0.02814302
12/06/2013,129.63,0.004019484
11/06/2013,129.11,-0.019254229
10/06/2013,131.62,-0.008021231
07/06/2013,132.68,0.015494765
06/06/2013,130.64,0.016360914
05/06/2013,128.52,-0.027928776
04/06/2013,132.16,0.003107122
03/06/2013,131.75,0.02031889
31/05/2013,129.1,-0.027428283
30/05/2013,132.69,-0.001054535
29/05/2013,132.83,0.012957181
28/05/2013,131.12,0.002214164
24/05/2013,130.83,-0.004347336
23/05/2013,131.4,0.003583277
22/05/2013,130.93,-0.025264343
21/05/2013,134.28,-0.009855947
20/05/2013,135.61,0.002658201
17/05/2013,135.25,0.015123021
16/05/2013,133.22,-0.010973945
15/05/2013,134.69,-0.014593419
14/05/2013,136.67,0.022269999
13/05/2013,133.66,0.000598713
10/05/2013,133.58,-0.018542399
09/05/2013,136.08,-0.013285837
08/05/2013,137.9,0.016155913
07/05/2013,135.69,0.073773555
06/05/2013,126.04,0.016479055
03/05/2013,123.98,0.035382308
02/05/2013,119.67,0.007044054
01/05/2013,118.83,-0.019418086
30/04/2013,121.16,-0.006335123
29/04/2013,121.93,0.023315721
26/04/2013,119.12,-0.022741456
25/04/2013,121.86,0.015964606
24/04/2013,119.93,0.024734304
23/04/2013,117,0.0051414
22/04/2013,116.4,0.025758473
19/04/2013,113.44,-0.016350091
18/04/2013,115.31,0.004258469
17/04/2013,114.82,-0.037017519
16/04/2013,119.15,0.025156421
15/04/2013,116.19,-0.066102621
12/04/2013,124.13,-0.03273005
11/04/2013,128.26,-0.002802867
10/04/2013,128.62,0.002880837
09/04/2013,128.25,0.010660915
08/04/2013,126.89,0.017008835
05/04/2013,124.75,0.015266239
04/04/2013,122.86,-0.026029747
03/04/2013,126.1,-0.023124683
02/04/2013,129.05,0.004193204
01/04/2013,128.51,0.003429733
28/03/2013,128.07,-0.001014555
27/03/2013,128.2,-0.005445365
26/03/2013,128.9,0.039400714
25/03/2013,123.92,-0.008517528
22/03/2013,124.98,0.008678936
21/03/2013,123.9,-0.018710068
20/03/2013,126.24,-0.008125957
19/03/2013,127.27,-0.012958807
18/03/2013,128.93,-0.011490391
15/03/2013,130.42,-0.010753202
14/03/2013,131.83,0.014902267
13/03/2013,129.88,-0.001538699
12/03/2013,130.08,0.01097638
11/03/2013,128.66,-0.000155436
08/03/2013,128.68,0.00874186
07/03/2013,127.56,0.015484588
06/03/2013,125.6,0.007191401
05/03/2013,124.7,0.023612603
04/03/2013,121.79,-0.009886105
01/03/2013,123,-0.021793312
28/02/2013,125.71,-0.0095793
27/02/2013,126.92,0.027315811
26/02/2013,123.5,0.014107137
25/02/2013,121.77,-0.028896025
22/02/2013,125.34,0.010425951
21/02/2013,124.04,-0.026649153
20/02/2013,127.39,-0.030992859
19/02/2013,131.4,0.016961917
15/02/2013,129.19,-0.031543069
14/02/2013,133.33,-0.002023003
13/02/2013,133.6,-0.003735529
12/02/2013,134.1,0.005683533
11/02/2013,133.34,0.000450079
08/02/2013,133.28,0.026688526
07/02/2013,129.77,0.000770891
06/02/2013,129.67,0.00657668
05/02/2013,128.82,0.011948133
04/02/2013,127.29,-0.010238864
01/02/2013,128.6,0.028553087
31/01/2013,124.98,-0.010664645
30/01/2013,126.32,-0.004896164
29/01/2013,126.94,0.021821364
28/01/2013,124.2,-0.008578238
25/01/2013,125.27,0.002237674
24/01/2013,124.99,0.001921999
23/01/2013,124.75,-0.013930574
22/01/2013,126.5,-0.002289866
18/01/2013,126.79,0.006012201
17/01/2013,126.03,0.005250609
16/01/2013,125.37,0.002155948
15/01/2013,125.1,0.003523386
14/01/2013,124.66,-0.007751048
11/01/2013,125.63,-0.003734164
10/01/2013,126.1,0.011725895
09/01/2013,124.63,0.003939387
08/01/2013,124.14,-0.014792578
07/01/2013,125.99,0.001509194
04/01/2013,125.8,0.012961218
03/01/2013,124.18,0.004034541
02/01/2013,123.68,0.023644084
31/12/2012,120.79,0.018212701
28/12/2012,118.61,-0.02514285
27/12/2012,121.63,0.000657949
26/12/2012,121.55,-0.009986985
24/12/2012,122.77,-0.006495111
21/12/2012,123.57,-0.006453197
20/12/2012,124.37,0.01555821
19/12/2012,122.45,-0.011933413
18/12/2012,123.92,0.024093615
17/12/2012,120.97,0.016503125
14/12/2012,118.99,0.004042111
13/12/2012,118.51,-0.018642128
12/12/2012,120.74,0.016787466
11/12/2012,118.73,0.008458141
10/12/2012,117.73,0.003232945
07/12/2012,117.35,-0.008569905
06/12/2012,118.36,-0.003036952
05/12/2012,118.72,0.013056565
04/12/2012,117.18,-0.000511902
03/12/2012,117.24,-0.003235973
30/11/2012,117.62,-0.000170025
29/11/2012,117.64,0.011026224
28/11/2012,116.35,0.010975351
27/11/2012,115.08,-0.01355046
26/11/2012,116.65,-0.019861457
23/11/2012,118.99,0.007169094
21/11/2012,118.14,0.006283454
20/11/2012,117.4,-0.010253893
19/11/2012,118.61,0.016491363
16/11/2012,116.67,0.004380886
15/11/2012,116.16,0.024399956
14/11/2012,113.36,-0.016795356
13/11/2012,115.28,0.004520961
12/11/2012,114.76,0.002093511
09/11/2012,114.52,-0.010855984
08/11/2012,115.77,-0.035886279
07/11/2012,120,-0.016365354
06/11/2012,121.98,0.043308414
05/11/2012,116.81,0.013878935
02/11/2012,115.2,-0.014478019
01/11/2012,116.88,0.003342335
31/10/2012,116.49,0.020817822
26/10/2012,114.09,0.014745753
25/10/2012,112.42,0.015418018
24/10/2012,110.7,0.004889985
23/10/2012,110.16,-0.017546678
22/10/2012,112.11,-0.008526564
19/10/2012,113.07,-0.014748753
18/10/2012,114.75,-0.004261061
17/10/2012,115.24,0.013101768
16/10/2012,113.74,0.031164628
15/10/2012,110.25,0.01342302
12/10/2012,108.78,-0.009606222
11/10/2012,109.83,0.003009167
10/10/2012,109.5,-0.014056001
09/10/2012,111.05,0.011137888
08/10/2012,109.82,-0.000819187
05/10/2012,109.91,-0.013644996
04/10/2012,111.42,0.003056182
03/10/2012,111.08,-0.035898117
02/10/2012,115.14,0.008285052
01/10/2012,114.19,0.018918527
28/09/2012,112.05,-0.010210966
27/09/2012,113.2,0.023236077
26/09/2012,110.6,-0.016321768
25/09/2012,112.42,-0.007002644
24/09/2012,113.21,-0.006515255
21/09/2012,113.95,0.003516487
20/09/2012,113.55,-0.000176118
19/09/2012,113.57,-0.020135786
18/09/2012,115.88,-0.004477362
17/09/2012,116.4,-0.010426554
14/09/2012,117.62,0.020962967
13/09/2012,115.18,0.01928531
12/09/2012,112.98,0.004880006
11/09/2012,112.43,0.000266868
10/09/2012,112.4,-0.00426137
07/09/2012,112.88,0.004172406
06/09/2012,112.41,0.035034133
05/09/2012,108.54,-0.007160592
04/09/2012,109.32,0.009374207
31/08/2012,108.3,0.022504335
30/08/2012,105.89,-0.020193264
29/08/2012,108.05,-0.007101058
28/08/2012,108.82,-0.003211159
27/08/2012,109.17,0.002384447
24/08/2012,108.91,0.017599565
23/08/2012,107.01,-0.017599565
22/08/2012,108.91,0.001286292
21/08/2012,108.77,-0.007328053
20/08/2012,109.57,-0.014676835
17/08/2012,111.19,0.001800343
16/08/2012,110.99,0.010597445
15/08/2012,109.82,-0.004814471
14/08/2012,110.35,0.009560738
13/08/2012,109.3,-0.006293057
10/08/2012,109.99,0.005287159
09/08/2012,109.41,0.013897421
08/08/2012,107.9,-0.007754839
07/08/2012,108.74,0.027976461
06/08/2012,105.74,-0.009506401
03/08/2012,106.75,0.104892241
02/08/2012,96.12,-0.04406268
01/08/2012,100.45,0.024590577
31/07/2012,98.01,-0.015690963
30/07/2012,99.56,-0.014459044
27/07/2012,101.01,0.036187993
26/07/2012,97.42,0.017917729
25/07/2012,95.69,0.001987552
24/07/2012,95.5,-0.017644464
23/07/2012,97.2,-0.020669676
20/07/2012,99.23,0.009925137
19/07/2012,98.25,0.015901848
18/07/2012,96.7,0.015213381
17/07/2012,95.24,0.021223207
16/07/2012,93.24,0.003330293
13/07/2012,92.93,0.020437715
12/07/2012,91.05,-0.009074572
11/07/2012,91.88,0.027922136
10/07/2012,89.35,-0.023668435
09/07/2012,91.49,0.00933406
06/07/2012,90.64,-0.01489296
05/07/2012,92,-0.030929749
03/07/2012,94.89,0.064756341
02/07/2012,88.94,-0.013069161
29/06/2012,90.11,0.056499306
28/06/2012,85.16,-0.006670983
27/06/2012,85.73,0.020862328
26/06/2012,83.96,-0.011133598
25/06/2012,84.9,-0.031535189
22/06/2012,87.62,0.013096109
21/06/2012,86.48,-0.07204095
20/06/2012,92.94,-0.031873099
19/06/2012,95.95,0.012796483
18/06/2012,94.73,-0.019961994
15/06/2012,96.64,0.02281627
14/06/2012,94.46,0.018807992
13/06/2012,92.7,-0.015733187
12/06/2012,94.17,0.024074242
11/06/2012,91.93,-0.020989953
08/06/2012,93.88,-0.016585179
07/06/2012,95.45,0.005568119
06/06/2012,94.92,0.032659897
05/06/2012,91.87,0.016130267
04/06/2012,90.4,-0.013950905
01/06/2012,91.67,-0.079950399
31/05/2012,99.3,-0.016875931
30/05/2012,100.99,-0.037604625
29/05/2012,104.86,0.030107303
25/05/2012,101.75,0.00947968
24/05/2012,100.79,-0.008988159
23/05/2012,101.7,0.003644786
22/05/2012,101.33,0.011214329
21/05/2012,100.2,0.039596033
18/05/2012,96.31,-0.010637849
17/05/2012,97.34,-0.016404668
16/05/2012,98.95,-0.002624144
15/05/2012,99.21,-0.018277662
14/05/2012,101.04,-0.031083518
11/05/2012,104.23,-0.021638882
10/05/2012,106.51,0.0133266
09/05/2012,105.1,0.010617537
08/05/2012,103.99,-0.007472731
07/05/2012,104.77,-0.004950977
04/05/2012,105.29,-0.022723982
03/05/2012,107.71,-0.014470965
02/05/2012,109.28,-0.017686734
01/05/2012,111.23,0.01284853
30/04/2012,109.81,0.007220248
27/04/2012,109.02,0.004596864
26/04/2012,108.52,0.019446996
25/04/2012,106.43,0.018779004
24/04/2012,104.45,0.008171158
23/04/2012,103.6,0.005517122
20/04/2012,103.03,-0.008986002
19/04/2012,103.96,-0.00201797
18/04/2012,104.17,-0.006029592
17/04/2012,104.8,0.01956029
16/04/2012,102.77,-0.005434269
13/04/2012,103.33,-0.018125646
12/04/2012,105.22,0.021809963
11/04/2012,102.95,-0.010147466
10/04/2012,104,-0.032541653
09/04/2012,107.44,-0.016065344
05/04/2012,109.18,-0.012198604
04/04/2012,110.52,-0.027134832
03/04/2012,113.56,0.001850955
02/04/2012,113.35,0.02004968
30/03/2012,111.1,0.018899345
29/03/2012,109.02,-0.005579708
28/03/2012,109.63,-0.014938488
27/03/2012,111.28,-0.007876876
26/03/2012,112.16,0.003841177
23/03/2012,111.73,0.012428114
22/03/2012,110.35,-0.030873259
21/03/2012,113.81,-0.007876813
20/03/2012,114.71,-0.023094521
19/03/2012,117.39,0.005209902
16/03/2012,116.78,0.009896385
15/03/2012,115.63,0.008249797
14/03/2012,114.68,-0.01874542
13/03/2012,116.85,0.027063843
12/03/2012,113.73,-0.010930982
09/03/2012,114.98,0.004969712
08/03/2012,114.41,0.011162498
07/03/2012,113.14,0.003719122
06/03/2012,112.72,-0.004249298
05/03/2012,113.2,-0.006164705
02/03/2012,113.9,-0.026083538
01/03/2012,116.91,0.026434784
29/02/2012,113.86,-0.02386541
28/02/2012,116.61,0.008526082
27/02/2012,115.62,-0.016554823
24/02/2012,117.55,0.008972502
23/02/2012,116.5,0.00723642
22/02/2012,115.66,8.64641E-05
21/02/2012,115.65,0.011304468
17/02/2012,114.35,-0.028195169
16/02/2012,117.62,0.023919234
15/02/2012,114.84,0.009536797
14/02/2012,113.75,0.003258049
13/02/2012,113.38,0.013765148
10/02/2012,111.83,-0.005528817
09/02/2012,112.45,0.009201834
08/02/2012,111.42,0.002606157
07/02/2012,111.13,0.009675016
06/02/2012,110.06,0.008852442
03/02/2012,109.09,0.024216056
02/02/2012,106.48,0.005461921
01/02/2012,105.9,-0.002263725
31/01/2012,106.14,0.007850596
30/01/2012,105.31,0.011364301
27/01/2012,104.12,-0.006032479
26/01/2012,104.75,-0.019474996
25/01/2012,106.81,0.021386129
24/01/2012,104.55,-0.009992945
23/01/2012,105.6,0.02337719
20/01/2012,103.16,-0.018440784
19/01/2012,105.08,-0.002756001
18/01/2012,105.37,0.015783005
17/01/2012,103.72,0.006577698
13/01/2012,103.04,-0.008119124
12/01/2012,103.88,0.006858274
11/01/2012,103.17,-0.022522395
10/01/2012,105.52,0.032262416
09/01/2012,102.17,-0.002541546
06/01/2012,102.43,0.002737317
05/01/2012,102.15,0.005497216
04/01/2012,101.59,0.001379039
03/01/2012,101.45,0.029408
30/12/2011,98.51,0.004680513
29/12/2011,98.05,0.016556499
28/12/2011,96.44,-0.026299802
27/12/2011,99.01,0.007502063
23/12/2011,98.27,-0.000610376
22/12/2011,98.33,0.00152664
21/12/2011,98.18,0.002141219
20/12/2011,97.97,0.024802346
19/12/2011,95.57,-0.021837867
16/12/2011,97.68,0.033732118
15/12/2011,94.44,0.013538931
14/12/2011,93.17,-0.055630767
13/12/2011,98.5,-0.025558896
12/12/2011,101.05,-0.026368715
09/12/2011,103.75,0.030533735
08/12/2011,100.63,-0.023569784
07/12/2011,103.03,-0.017891974
06/12/2011,104.89,0.026861518
05/12/2011,102.11,-0.00439733
02/12/2011,102.56,0.000292554
01/12/2011,102.53,-0.01173233
30/11/2011,103.74,0.054576101
29/11/2011,98.23,0.027243456
28/11/2011,95.59,0.050638298
25/11/2011,90.87,-0.008110522
23/11/2011,91.61,-0.036125907
22/11/2011,94.98,-0.01078601
21/11/2011,96.01,-0.018881139
18/11/2011,97.84,0.008416349
17/11/2011,97.02,-0.037129347
16/11/2011,100.69,-0.016449521
15/11/2011,102.36,-0.0136809
14/11/2011,103.77,-0.002310137
11/11/2011,104.01,0.038916942
10/11/2011,100.04,0.018258438
09/11/2011,98.23,-0.036778403
08/11/2011,101.91,0.007287801
07/11/2011,101.17,-0.005028357
04/11/2011,101.68,0.016360486
03/11/2011,100.03,0.04070537
02/11/2011,96.04,0.111813798
01/11/2011,85.88,-0.040505223
31/10/2011,89.43,-0.062313639
28/10/2011,95.18,0.024892254
27/10/2011,92.84,0.060153492
26/10/2011,87.42,-0.001143249
25/10/2011,87.52,-0.039870903
24/10/2011,91.08,0.005063302
21/10/2011,90.62,0.036866391
20/10/2011,87.34,-0.006049901
19/10/2011,87.87,0.021278622
18/10/2011,86.02,0.055081712
17/10/2011,81.41,-0.03108056
14/10/2011,83.98,0.045805815
13/10/2011,80.22,-0.00905882
12/10/2011,80.95,0.010056575
11/10/2011,80.14,0.0091508
10/10/2011,79.41,0.058470414
07/10/2011,74.9,-0.047454159
06/10/2011,78.54,0.022403409
05/10/2011,76.8,0.041744729
04/10/2011,73.66,0.073940898
03/10/2011,68.41,-0.037301699
30/09/2011,71.01,-0.03826698
29/09/2011,73.78,-0.006888661
28/09/2011,74.29,-0.056522565
27/09/2011,78.61,0.024858
26/09/2011,76.68,0.039366785
23/09/2011,73.72,-0.040279254
22/09/2011,76.75,-0.08345457
21/09/2011,83.43,-0.043278522
20/09/2011,87.12,-0.007319337
19/09/2011,87.76,-0.026980054
16/09/2011,90.16,-0.002658398
15/09/2011,90.4,0.029752405
14/09/2011,87.75,0.011461444
13/09/2011,86.75,0.00740487
12/09/2011,86.11,0.009216655
09/09/2011,85.32,-0.045032527
08/09/2011,89.25,-0.015785121
07/09/2011,90.67,0.041778299
06/09/2011,86.96,-0.015857956
02/09/2011,88.35,-0.034158074
01/09/2011,91.42,-0.012716872
31/08/2011,92.59,0.004221014
30/08/2011,92.2,0.007074859
29/08/2011,91.55,0.018743658
26/08/2011,89.85,0.017854609
25/08/2011,88.26,-0.018633382
24/08/2011,89.92,0.010621152
23/08/2011,88.97,0.02989043
22/08/2011,86.35,-0.014029669
19/08/2011,87.57,-0.000684932
18/08/2011,87.63,-0.070171377
17/08/2011,94,-0.006151255
16/08/2011,94.58,-0.017918434
15/08/2011,96.29,0.022475216
12/08/2011,94.15,0.010785518
11/08/2011,93.14,0.068310568
10/08/2011,86.99,-0.043526691
09/08/2011,90.86,0.025188003
08/08/2011,88.6,-0.079382653
05/08/2011,95.92,0.040313888
04/08/2011,92.13,-0.061562753
03/08/2011,97.98,-0.012475439
02/08/2011,99.21,-0.024001551
01/08/2011,101.62,-0.003732447
29/07/2011,102,-0.013922242
28/07/2011,103.43,-0.006168694
27/07/2011,104.07,-0.023738297
26/07/2011,106.57,0.00338378
25/07/2011,106.21,-0.00338378
22/07/2011,106.57,0.009522535
21/07/2011,105.56,0.016717206
20/07/2011,103.81,-0.002117014
19/07/2011,104.03,0.024423496
18/07/2011,101.52,0.003255886
15/07/2011,101.19,0.045283128
14/07/2011,96.71,-0.022796796
13/07/2011,98.94,0.000505485
12/07/2011,98.89,-0.001212734
11/07/2011,99.01,-0.028967337
08/07/2011,101.92,-0.015866396
07/07/2011,103.55,0.012438213
06/07/2011,102.27,-0.00944
05/07/2011,103.24,0.001550989
01/07/2011,103.08,-0.01416004
30/06/2011,104.55,0.013966035
29/06/2011,103.1,0.006715027
28/06/2011,102.41,0.020519611
27/06/2011,100.33,0.020745961
24/06/2011,98.27,-0.019050115
23/06/2011,100.16,-0.011712293
22/06/2011,101.34,-0.008352626
21/06/2011,102.19,0.012703898
20/06/2011,100.9,-0.013290868
17/06/2011,102.25,0.006278839
16/06/2011,101.61,-0.0123241
15/06/2011,102.87,-0.020779968
14/06/2011,105.03,0.003051399
13/06/2011,104.71,-0.02787637
10/06/2011,107.67,-0.028475259
09/06/2011,110.78,0.016748981
08/06/2011,108.94,0.008203189
07/06/2011,108.05,-0.009304107
06/06/2011,109.06,-0.013660171
03/06/2011,110.56,-0.003160702
02/06/2011,110.91,0.024830121
01/06/2011,108.19,-0.008742521
31/05/2011,109.14,0.009112309
27/05/2011,108.15,0.008543092
26/05/2011,107.23,0.000279812
25/05/2011,107.2,0.010691277
24/05/2011,106.06,0.017213111
23/05/2011,104.25,-0.024634121
20/05/2011,106.85,0.008081232
19/05/2011,105.99,-0.005926361
18/05/2011,106.62,0.009518048
17/05/2011,105.61,0.008653946
16/05/2011,104.7,-0.007042953
13/05/2011,105.44,-0.000758438
12/05/2011,105.52,-0.011026925
11/05/2011,106.69,-0.038250503
10/05/2011,110.85,-0.004231001
09/05/2011,111.32,0.035476384
06/05/2011,107.44,0.029181919
05/05/2011,104.35,-0.018326487
04/05/2011,106.28,-0.017442032
03/05/2011,108.15,-0.025470362
02/05/2011,110.94,-0.018840684
29/04/2011,113.05,0.009509915
28/04/2011,111.98,0.001966569
27/04/2011,111.76,0.000357974
26/04/2011,111.72,0.012429233
25/04/2011,110.34,-0.013770975
21/04/2011,111.87,0.000447047
20/04/2011,111.82,0.021239896
19/04/2011,109.47,-0.00364731
18/04/2011,109.87,-0.010592648
15/04/2011,111.04,0.002886005
14/04/2011,110.72,0.000993991
13/04/2011,110.61,0.01255475
12/04/2011,109.23,-0.031007441
11/04/2011,112.67,-0.017508035
08/04/2011,114.66,0
07/04/2011,114.66,-0.001307361
06/04/2011,114.81,-0.018211352
05/04/2011,116.92,-0.012325372
04/04/2011,118.37,-0.000168947
01/04/2011,118.39,-0.001013086
31/03/2011,118.51,-0.005721513
30/03/2011,119.19,-0.004019096
29/03/2011,119.67,0.010331451
28/03/2011,118.44,0.007627802
25/03/2011,117.54,0.017075364
24/03/2011,115.55,0.012891042
23/03/2011,114.07,0.0062437
22/03/2011,113.36,0.017441268
21/03/2011,111.4,0.031644459
18/03/2011,107.93,-0.006924916
17/03/2011,108.68,0.039316412
16/03/2011,104.49,-0.009050698
15/03/2011,105.44,-0.010284565
14/03/2011,106.53,0.008294892
11/03/2011,105.65,0.027054605
10/03/2011,102.83,-0.02847338
09/03/2011,105.8,-0.003773589
08/03/2011,106.2,-0.02216312
07/03/2011,108.58,-0.007340829
04/03/2011,109.38,-0.015512626
03/03/2011,111.09,0.02184089
02/03/2011,108.69,0.007016925
01/03/2011,107.93,-0.039780036
28/02/2011,112.31,0.004998671
25/02/2011,111.75,0.014239606
24/02/2011,110.17,-0.037589035
23/02/2011,114.39,0.054523853
22/02/2011,108.32,-0.005248389
18/02/2011,108.89,0.043834149
17/02/2011,104.22,0.011872153
16/02/2011,102.99,-0.005422692
15/02/2011,103.55,-0.012952928
14/02/2011,104.9,0.015370139
11/02/2011,103.3,-0.009058557
10/02/2011,104.24,0.002785919
09/02/2011,103.95,-0.007762005
08/02/2011,104.76,-0.00789165
07/02/2011,105.59,-0.011206973
04/02/2011,106.78,-0.002525372
03/02/2011,107.05,-0.001773298
02/02/2011,107.24,-0.001304632
01/02/2011,107.38,0.009262357
31/01/2011,106.39,0.036956149
28/01/2011,102.53,-0.006997793
27/01/2011,103.25,0.009439081
26/01/2011,102.28,0.02384481
25/01/2011,99.87,-0.018452905
24/01/2011,101.73,9.83043E-05
21/01/2011,101.72,0.003545405
20/01/2011,101.36,-0.000788955
19/01/2011,101.44,-0.01409577
18/01/2011,102.88,0.02260983
14/01/2011,100.58,0.027415545
13/01/2011,97.86,-0.006417134
12/01/2011,98.49,0.018031428
11/01/2011,96.73,0.018573155
10/01/2011,94.95,0.007293516
07/01/2011,94.26,0.015394788
06/01/2011,92.82,0.005293018
05/01/2011,92.33,0.002059956
04/01/2011,92.14,-0.002276547
03/01/2011,92.35,0.010230825
31/12/2010,91.41,-0.003712605
30/12/2010,91.75,0.006122245
29/12/2010,91.19,0.013357819
28/12/2010,89.98,-0.001554692
27/12/2010,90.12,-0.014650259
23/12/2010,91.45,-0.008167756
22/12/2010,92.2,0.005983156
21/12/2010,91.65,0.002075256
20/12/2010,91.46,-0.002293454
17/12/2010,91.67,0.01273483
16/12/2010,90.51,0.004318226
15/12/2010,90.12,-0.016834859
14/12/2010,91.65,0.010419617
13/12/2010,90.7,-0.000551116
10/12/2010,90.75,-0.016176984
09/12/2010,92.23,0.000325327
08/12/2010,92.2,-0.005516211
07/12/2010,92.71,-0.017852845
06/12/2010,94.38,0.006804194
03/12/2010,93.74,-0.001279318
02/12/2010,93.86,0.024045581
01/12/2010,91.63,0.029684315
30/11/2010,88.95,-0.003030816
29/11/2010,89.22,0.003368141
26/11/2010,88.92,-0.009847886
24/11/2010,89.8,0.012325086
23/11/2010,88.7,-0.041948755
22/11/2010,92.5,-0.004960649
19/11/2010,92.96,0.009185778
18/11/2010,92.11,0.021286737
17/11/2010,90.17,-0.009712029
16/11/2010,91.05,-0.015042795
15/11/2010,92.43,0.004119694
12/11/2010,92.05,-0.022132403
11/11/2010,94.11,0.00244694
10/11/2010,93.88,0.020337495
09/11/2010,91.99,0.027888277
08/11/2010,89.46,0.00954688
05/11/2010,88.61,0.003617867
04/11/2010,88.29,-0.003956372
03/11/2010,88.64,-0.097727669
02/11/2010,97.74,0.017233799
01/11/2010,96.07,0.003649829
29/10/2010,95.72,0.00818215
28/10/2010,94.94,-0.008599948
27/10/2010,95.76,0.000104433
26/10/2010,95.75,-0.017701409
25/10/2010,97.46,0.001540279
22/10/2010,97.31,-0.015195846
21/10/2010,98.8,-0.013271862
20/10/2010,100.12,0.006412848
19/10/2010,99.48,-0.018425899
18/10/2010,101.33,0.012812411
15/10/2010,100.04,0.010349251
14/10/2010,99.01,0.002629451
13/10/2010,98.75,-0.001618942
12/10/2010,98.91,-0.006550132
11/10/2010,99.56,0.001004924
08/10/2010,99.46,0.009090054
07/10/2010,98.56,0.000405927
06/10/2010,98.52,0.012152307
05/10/2010,97.33,0.016680003
04/10/2010,95.72,-0.004690196
01/10/2010,96.17,0.033840598
30/09/2010,92.97,-0.009101192
29/09/2010,93.82,0.021983644
28/09/2010,91.78,0.005791417
27/09/2010,91.25,-0.009380523
24/09/2010,92.11,0.02684725
23/09/2010,89.67,-0.007665427
22/09/2010,90.36,0.008223182
21/09/2010,89.62,0.021314593
20/09/2010,87.73,-0.015607645
17/09/2010,89.11,-0.020987945
16/09/2010,91,-0.006353401
15/09/2010,91.58,-0.006747223
14/09/2010,92.2,-0.000975663
13/09/2010,92.29,0.000975663
10/09/2010,92.2,0.031175075
09/09/2010,89.37,-0.010020124
08/09/2010,90.27,0.017432557
07/09/2010,88.71,-0.018097009
03/09/2010,90.33,0.009342744
02/09/2010,89.49,-0.005015894
01/09/2010,89.94,0.034730033
31/08/2010,86.87,-0.007911524
30/08/2010,87.56,-0.02079641
27/08/2010,89.4,0.031589946
26/08/2010,86.62,-0.00965081
25/08/2010,87.46,-0.013063172
24/08/2010,88.61,-0.034604761
23/08/2010,91.73,0.003385207
20/08/2010,91.42,-0.001093255
19/08/2010,91.52,-0.019798342
18/08/2010,93.35,-0.019203815
17/08/2010,95.16,0.011307914
16/08/2010,94.09,-0.000849889
13/08/2010,94.17,-0.012557544
12/08/2010,95.36,-0.018596973
11/08/2010,97.15,-0.035889624
10/08/2010,100.7,0.007575794
09/08/2010,99.94,0.006827336
06/08/2010,99.26,-0.031534591
05/08/2010,102.44,-0.005451727
04/08/2010,103,0.012701685
03/08/2010,101.7,-0.007933052
02/08/2010,102.51,0.050107977
30/07/2010,97.5,-0.031101053
29/07/2010,100.58,0.000198866
28/07/2010,100.56,0
27/07/2010,100.56,-0.030940396
26/07/2010,103.72,0.013492076
23/07/2010,102.33,-0.008465968
22/07/2010,103.2,0.007586847
21/07/2010,102.42,-0.016750162
20/07/2010,104.15,0.02076132
19/07/2010,102.01,-0.002643303
16/07/2010,102.28,-0.037515792
15/07/2010,106.19,-0.004228733
14/07/2010,106.64,-0.001592879
13/07/2010,106.81,0.011961527
12/07/2010,105.54,-0.000284212
09/07/2010,105.57,-0.006138175
08/07/2010,106.22,0.023046444
07/07/2010,103.8,0.038796911
06/07/2010,99.85,0.015238198
02/07/2010,98.34,-0.007496743
01/07/2010,99.08,0.007191725
30/06/2010,98.37,-0.018831431
29/06/2010,100.24,-0.050385061
28/06/2010,105.42,-0.040525992
25/06/2010,109.78,0.048430418
24/06/2010,104.59,-0.021284443
23/06/2010,106.84,0.003656997
22/06/2010,106.45,-0.03833511
21/06/2010,110.61,0.003532132
18/06/2010,110.22,0.001452697
17/06/2010,110.06,-0.002993878
16/06/2010,110.39,0.000271801
15/06/2010,110.36,0.012858688
14/06/2010,108.95,-0.008317767
11/06/2010,109.86,0.009971267
10/06/2010,108.77,0.046673256
09/06/2010,103.81,-0.014820752
08/06/2010,105.36,0.040877362
07/06/2010,101.14,-0.0181262
04/06/2010,102.99,-0.063390907
03/06/2010,109.73,0.018209074
02/06/2010,107.75,0.066377799
01/06/2010,100.83,-0.038999448
28/05/2010,104.84,-0.015803499
27/05/2010,106.51,0.065672077
26/05/2010,99.74,0.010380542
25/05/2010,98.71,0.01377081
24/05/2010,97.36,-0.0326374
21/05/2010,100.59,0.043688378
20/05/2010,96.29,-0.059860706
19/05/2010,102.23,-0.005949206
18/05/2010,102.84,-0.003785126
17/05/2010,103.23,-0.027328282
14/05/2010,106.09,-0.018583903
13/05/2010,108.08,-0.002771876
12/05/2010,108.38,0.034162481
11/05/2010,104.74,-0.016569995
10/05/2010,106.49,0.054515982
07/05/2010,100.84,-0.015058599
06/05/2010,102.37,-0.026984388
05/05/2010,105.17,-0.047081719
04/05/2010,110.24,-0.029671524
03/05/2010,113.56,0.012761605
30/04/2010,112.12,0.007699922
29/04/2010,111.26,0.016676116
28/04/2010,109.42,0.007246076
27/04/2010,108.63,-0.034827816
26/04/2010,112.48,-0.010963859
23/04/2010,113.72,0.006262976
22/04/2010,113.01,0.010138828
21/04/2010,111.87,0.00322321
20/04/2010,111.51,0.032075643
19/04/2010,107.99,0.004826891
16/04/2010,107.47,-0.027803782
15/04/2010,110.5,0.011010621
14/04/2010,109.29,0.017630955
13/04/2010,107.38,0.001864281
12/04/2010,107.18,0.022742193
09/04/2010,104.77,-0.020687461
08/04/2010,106.96,0.030567164
07/04/2010,103.74,0.063266918
06/04/2010,97.38,-0.003996931
05/04/2010,97.77,0.022654188
01/04/2010,95.58,0.028009469
31/03/2010,92.94,-0.004294617
30/03/2010,93.34,0.004079447
29/03/2010,92.96,0.036925586
26/03/2010,89.59,0.001899336
25/03/2010,89.42,-0.034620744
24/03/2010,92.57,-0.016817921
23/03/2010,94.14,0.028444064
22/03/2010,91.5,-0.002183407
19/03/2010,91.7,-0.017083343
18/03/2010,93.28,-0.026761341
17/03/2010,95.81,-0.006968669
16/03/2010,96.48,-0.004240581
15/03/2010,96.89,-0.00709624
12/03/2010,97.58,-0.002047503
11/03/2010,97.78,-0.010782324
10/03/2010,98.84,0.008024828
09/03/2010,98.05,0.006959398
08/03/2010,97.37,-0.000102696
05/03/2010,97.38,0.022640909
04/03/2010,95.2,-0.00649149
03/03/2010,95.82,0.010385617
02/03/2010,94.83,0.001899937
01/03/2010,94.65,0.006359322
26/02/2010,94.05,0.008864265
25/02/2010,93.22,0.005809591
24/02/2010,92.68,0.03034353
23/02/2010,89.91,-0.024174345
22/02/2010,92.11,-0.027096705
19/02/2010,94.64,0.003174942
18/02/2010,94.34,0.015812295
17/02/2010,92.86,0.000430849
16/02/2010,92.82,0.020022432
12/02/2010,90.98,-0.000878928
11/02/2010,91.06,0.031458255
10/02/2010,88.24,-0.06896265
09/02/2010,94.54,0.031810118
08/02/2010,91.58,-0.013880075
05/02/2010,92.86,-0.000430663
04/02/2010,92.9,-0.045247066
03/02/2010,97.2,0.001750502
02/02/2010,97.03,0.015370538
01/02/2010,95.55,0.055184189
29/01/2010,90.42,-0.011982774
28/01/2010,91.51,-0.009570492
27/01/2010,92.39,-0.00808499
26/01/2010,93.14,-0.019457315
25/01/2010,94.97,0.009734497
22/01/2010,94.05,-0.02664866
21/01/2010,96.59,0.002695419
20/01/2010,96.33,-0.010532935
19/01/2010,97.35,0.004942858
15/01/2010,96.87,-0.011597605
14/01/2010,98,0.002451983
13/01/2010,97.76,0.024227295
12/01/2010,95.42,-0.028106831
11/01/2010,98.14,-0.009229742
08/01/2010,99.05,0.00506074
07/01/2010,98.55,-0.009392585
06/01/2010,99.48,0.003322764
05/01/2010,99.15,-0.012329129
04/01/2010,100.38,0.031163995
31/12/2009,97.3,-0.015399825
30/12/2009,98.81,-0.004644596
29/12/2009,99.27,-0.00662653
28/12/2009,99.93,-0.00648349
24/12/2009,100.58,0.00688385
23/12/2009,99.89,0.021451799
22/12/2009,97.77,0.032009384
21/12/2009,94.69,0.018546684
18/12/2009,92.95,0.004528798
17/12/2009,92.53,-0.008394367
16/12/2009,93.31,0.016314986
15/12/2009,91.8,0.015478656
14/12/2009,90.39,0.049205119
11/12/2009,86.05,-0.00717928
10/12/2009,86.67,0.01137167
09/12/2009,85.69,0.005148017
08/12/2009,85.25,-0.023418645
07/12/2009,87.27,0.002294368
04/12/2009,87.07,0.002414766
03/12/2009,86.86,-0.00264444
02/12/2009,87.09,-0.013684784
01/12/2009,88.29,0.020598051
30/11/2009,86.49,-0.008519508
27/11/2009,87.23,-0.028033937
25/11/2009,89.71,0.013014881
24/11/2009,88.55,0.004187184
23/11/2009,88.18,0.019582647
20/11/2009,86.47,-0.005190622
19/11/2009,86.92,-0.020722591
18/11/2009,88.74,-0.013876677
17/11/2009,89.98,-0.006093864
16/11/2009,90.53,0.022678735
13/11/2009,88.5,-0.004059545
12/11/2009,88.86,-0.0155215
11/11/2009,90.25,-0.010251978
10/11/2009,91.18,-0.013291404
09/11/2009,92.4,0.022435962
06/11/2009,90.35,0.026013352
05/11/2009,88.03,0.031503211
04/11/2009,85.3,0.027333847
03/11/2009,83,0.012487281
02/11/2009,81.97,0.003789041
30/10/2009,81.66,-0.049920812
29/10/2009,85.84,0.018459169
28/10/2009,84.27,-0.02923501
27/10/2009,86.77,-0.001036687
26/10/2009,86.86,-0.026134881
23/10/2009,89.16,-0.025359866
22/10/2009,91.45,-0.016161749
21/10/2009,92.94,-0.015692876
20/10/2009,94.41,0.000635728
19/10/2009,94.35,0.016456879
16/10/2009,92.81,-0.003549345
15/10/2009,93.14,0.018420718
14/10/2009,91.44,0.019992934
13/10/2009,89.63,-0.010543353
12/10/2009,90.58,0.010878118
09/10/2009,89.6,-0.00100396
08/10/2009,89.69,0.057125622
07/10/2009,84.71,0.001535826
06/10/2009,84.58,0.024778334
05/10/2009,82.51,0.021437705
02/10/2009,80.76,-0.003584455
01/10/2009,81.05,-0.029900137
30/09/2009,83.51,0.022647047
29/09/2009,81.64,0.018669022
28/09/2009,80.13,0.014962246
25/09/2009,78.94,-0.013963369
24/09/2009,80.05,-0.02662551
23/09/2009,82.21,-0.021896929
22/09/2009,84.03,0.033273894
21/09/2009,81.28,-0.007110487
18/09/2009,81.86,-0.008635947
17/09/2009,82.57,-0.007961441
16/09/2009,83.23,0.041332758
15/09/2009,79.86,0.035301531
14/09/2009,77.09,0.014898341
11/09/2009,75.95,-0.011389794
10/09/2009,76.82,0.031471591
09/09/2009,74.44,0.010805075
08/09/2009,73.64,0.044001269
04/09/2009,70.47,0.010126308
03/09/2009,69.76,-0.002290952
02/09/2009,69.92,-0.009961659
01/09/2009,70.62,-0.019352729
31/08/2009,72,-0.017212129
28/08/2009,73.25,0.003966902
27/08/2009,72.96,-0.013883441
26/08/2009,73.98,-0.005795555
25/08/2009,74.41,-0.018903651
24/08/2009,75.83,0.000527635
21/08/2009,75.79,0.029864958
20/08/2009,73.56,-0.003528298
19/08/2009,73.82,0.020390717
18/08/2009,72.33,0.006797557
17/08/2009,71.84,-0.03890479
14/08/2009,74.69,-0.011713165
13/08/2009,75.57,0.018430009
12/08/2009,74.19,0.005812791
11/08/2009,73.76,-0.032544883
10/08/2009,76.2,0.019479845
07/08/2009,74.73,-0.045643751
06/08/2009,78.22,0.002560165
05/08/2009,78.02,0.007332637
04/08/2009,77.45,0.010382962
03/08/2009,76.65,0.034779189
31/07/2009,74.03,0.015381777
30/07/2009,72.9,0.027818205
29/07/2009,70.9,-0.035198313
28/07/2009,73.44,-0.011642205
27/07/2009,74.3,-0.005235263
24/07/2009,74.69,0.011851991
23/07/2009,73.81,0.033196354
22/07/2009,71.4,-0.016529302
21/07/2009,72.59,0.004003042
20/07/2009,72.3,0.03820325
17/07/2009,69.59,0.004897734
16/07/2009,69.25,0.040821995
15/07/2009,66.48,0.027603735
14/07/2009,64.67,0.013074116
13/07/2009,63.83,0.021056743
10/07/2009,62.5,-0.001918159
09/07/2009,62.62,0.013666906
08/07/2009,61.77,0.019453004
07/07/2009,60.58,-0.033279591
06/07/2009,62.63,-0.025225995
02/07/2009,64.23,-0.042819065
01/07/2009,67.04,-0.013041086
30/06/2009,67.92,0.014235116
29/06/2009,66.96,-0.008920666
26/06/2009,67.56,-0.015713665
25/06/2009,68.63,0.019272388
24/06/2009,67.32,0.000445732
23/06/2009,67.29,-0.00281962
22/06/2009,67.48,-0.035520474
19/06/2009,69.92,-0.030702313
18/06/2009,72.1,-0.015824204
17/06/2009,73.25,-0.008293162
16/06/2009,73.86,-0.031846006
15/06/2009,76.25,-0.01780771
12/06/2009,77.62,0.006851555
11/06/2009,77.09,0.024157667
10/06/2009,75.25,0.00800538
09/06/2009,74.65,0.012807725
08/06/2009,73.7,0.002581348
05/06/2009,73.51,0.004089428
04/06/2009,73.21,0.00878041
03/06/2009,72.57,-0.048941074
02/06/2009,76.21,-0.006669743
01/06/2009,76.72,0.047103631
29/05/2009,73.19,0.007956146
28/05/2009,72.61,0.061632222
27/05/2009,68.27,-0.014541481
26/05/2009,69.27,0.001155569
22/05/2009,69.19,-0.008061077
21/05/2009,69.75,-0.037841212
20/05/2009,72.44,0.005814775
19/05/2009,72.02,0.013560004
18/05/2009,71.05,0.04020642
15/05/2009,68.25,-0.044560054
14/05/2009,71.36,0.014681235
13/05/2009,70.32,-0.040821995
12/05/2009,73.25,-0.006531524
11/05/2009,73.73,-0.041705911
08/05/2009,76.87,0.044558205
07/05/2009,73.52,-0.05310748
06/05/2009,77.53,0.087844246
05/05/2009,71.01,-0.014400808
04/05/2009,72.04,0.086355391
01/05/2009,66.08,0.040141234
30/04/2009,63.48,-0.034982673
29/04/2009,65.74,0.036401448
28/04/2009,63.39,0.015420383
27/04/2009,62.42,-0.011943768
24/04/2009,63.17,0.04948694
23/04/2009,60.12,0.064582878
22/04/2009,56.36,-0.009711386
21/04/2009,56.91,0.01665524
20/04/2009,55.97,-0.070861175
17/04/2009,60.08,0.025283666
16/04/2009,58.58,-0.011203648
15/04/2009,59.24,-0.0213769
14/04/2009,60.52,-0.023676508
13/04/2009,61.97,0.010055226
09/04/2009,61.35,0.038210629
08/04/2009,59.05,0.018458907
07/04/2009,57.97,-0.046018063
06/04/2009,60.7,-0.039410785
03/04/2009,63.14,0.045524991
02/04/2009,60.33,0.05450012
01/04/2009,57.13,0.042369372
31/03/2009,54.76,-0.034108494
30/03/2009,56.66,-0.045709431
27/03/2009,59.31,-0.044195156
26/03/2009,61.99,-0.023121496
25/03/2009,63.44,-0.010037725
24/03/2009,64.08,-0.030733826
23/03/2009,66.08,0.064538521
20/03/2009,61.95,-0.020609404
19/03/2009,63.24,0.01964135
18/03/2009,62.01,-0.017425107
17/03/2009,63.1,0.025358444
16/03/2009,61.52,0.041994387
13/03/2009,58.99,0.00305603
12/03/2009,58.81,0.085327862
11/03/2009,54,0.02039169
10/03/2009,52.91,0.048204435
09/03/2009,50.42,-0.032201045
06/03/2009,52.07,0.004426915
05/03/2009,51.84,0.014377555
04/03/2009,51.1,0.0617505
03/03/2009,48.04,0.052345603
02/03/2009,45.59,-0.093134291
27/02/2009,50.04,-0.02701002
26/02/2009,51.41,-0.011987769
25/02/2009,52.03,-0.024678549
24/02/2009,53.33,0.045065626
23/02/2009,50.98,-0.077897789
20/02/2009,55.11,-0.01280104
19/02/2009,55.82,-0.014230052
18/02/2009,56.62,0.006734032
17/02/2009,56.24,-0.124870238
13/02/2009,63.72,-0.005945879
12/02/2009,64.1,-0.004047958
11/02/2009,64.36,-0.031204734
10/02/2009,66.4,-0.063314127
09/02/2009,70.74,0.033492171
06/02/2009,68.41,-0.00989099
05/02/2009,69.09,0.007409055
04/02/2009,68.58,0.010112199
03/02/2009,67.89,0.017084275
02/02/2009,66.74,-0.015315146
30/01/2009,67.77,-0.011735502
29/01/2009,68.57,-0.020068529
28/01/2009,69.96,0.048318577
27/01/2009,66.66,-0.019902632
26/01/2009,68,0.02125368
23/01/2009,66.57,0.043755541
22/01/2009,63.72,-0.024799783
21/01/2009,65.32,0.072860458
20/01/2009,60.73,-0.048217599
16/01/2009,63.73,-0.004540125
15/01/2009,64.02,0.009889414
14/01/2009,63.39,-0.056579817
13/01/2009,67.08,0.053744276
12/01/2009,63.57,-0.04566161
09/01/2009,66.54,-0.045104965
08/01/2009,69.61,0.013595813
07/01/2009,68.67,-0.035056169
06/01/2009,71.12,0.006347437
05/01/2009,70.67,
